Time	pn	pe	pd	u	v	w	phi	theta	psip	q	r
0.0000000	0.0000000	0.0000000	-1.0000000	0.0000000	0.0000000	0.0000000	0.1745329	-0.1745329	-0.1745329	0.0000000	0.0000000	0.0000000
0.0100000	0.0000849	0.0000604	-0.9999251	0.0169884	0.0167285	0.0094348	0.1744699	-0.1744905	-0.1744713	-0.0104723	0.0104717	0.0104720
0.0200000	0.0003394	0.0002415	-0.9997030	0.0338796	0.0333507	0.0184457	0.1742818	-0.1743638	-0.1742877	-0.0207593	0.0207558	0.0207570
0.0300000	0.0007631	0.0005431	-0.9993379	0.0506677	0.0498506	0.0270577	0.1739711	-0.1741543	-0.1739842	-0.0308584	0.0308489	0.0308510
0.0400000	0.0013557	0.0009648	-0.9988345	0.0673471	0.0662126	0.0352953	0.1735402	-0.1738636	-0.1735634	-0.0407671	0.0407478	0.0407502
0.0500000	0.0021165	0.0015062	-0.9981969	0.0839120	0.0824219	0.0431821	0.1729913	-0.1734931	-0.1730275	-0.0504830	0.0504496	0.0504508
0.0600000	0.0030449	0.0021669	-0.9974292	0.1003573	0.0984641	0.0507408	0.1723271	-0.1730441	-0.1723792	-0.0600039	0.0599515	0.0599496
0.0700000	0.0041402	0.0029464	-0.9965356	0.1166774	0.1143253	0.0579937	0.1715501	-0.1725181	-0.1716209	-0.0693274	0.0692510	0.0692432
0.0800000	0.0054015	0.0038439	-0.9955200	0.1328674	0.1299925	0.0649619	0.1706629	-0.1719166	-0.1707554	-0.0784515	0.0783458	0.0783287
0.0900000	0.0068277	0.0048587	-0.9943863	0.1489222	0.1454530	0.0716660	0.1696681	-0.1712408	-0.1697852	-0.0873740	0.0872340	0.0872033
0.1000000	0.0084177	0.0059901	-0.9931381	0.1648369	0.1606946	0.0781258	0.1685685	-0.1704922	-0.1687132	-0.0960932	0.0959136	0.0958644
0.1100000	0.0101703	0.0072371	-0.9917792	0.1806065	0.1757058	0.0843600	0.1673668	-0.1696721	-0.1675421	-0.1046072	0.1043830	0.1043095
0.1200000	0.0120842	0.0085988	-0.9903130	0.1962264	0.1904756	0.0903869	0.1660658	-0.1687819	-0.1662747	-0.1129142	0.1126407	0.1125366
0.1300000	0.0141580	0.0100742	-0.9887432	0.2116916	0.2049935	0.0962236	0.1646682	-0.1678230	-0.1649139	-0.1210127	0.1206857	0.1205437
0.1400000	0.0163901	0.0116620	-0.9870729	0.2269976	0.2192494	0.1018868	0.1631770	-0.1667968	-0.1634627	-0.1289010	0.1285167	0.1283291
0.1500000	0.0187790	0.0133613	-0.9853057	0.2421397	0.2332340	0.1073920	0.1615949	-0.1657045	-0.1619238	-0.1365779	0.1361330	0.1358911
0.1600000	0.0213228	0.0151706	-0.9834445	0.2571133	0.2469382	0.1127542	0.1599250	-0.1645476	-0.1603003	-0.1440421	0.1435338	0.1432284
0.1700000	0.0240199	0.0170887	-0.9814926	0.2719137	0.2603535	0.1179874	0.1581700	-0.1633274	-0.1585951	-0.1512923	0.1507187	0.1503399
0.1800000	0.0268684	0.0191141	-0.9794531	0.2865364	0.2734721	0.1231049	0.1563330	-0.1620452	-0.1568112	-0.1583276	0.1576873	0.1572247
0.1900000	0.0298662	0.0212455	-0.9773287	0.3009769	0.2862864	0.1281192	0.1544168	-0.1607024	-0.1549516	-0.1651470	0.1644395	0.1638819
0.2000000	0.0330114	0.0234813	-0.9751226	0.3152306	0.2987893	0.1330421	0.1524245	-0.1593003	-0.1530193	-0.1717496	0.1709753	0.1703111
0.2100000	0.0363017	0.0258199	-0.9728374	0.3292930	0.3109744	0.1378846	0.1503590	-0.1578404	-0.1510172	-0.1781348	0.1772947	0.1765118
0.2200000	0.0397351	0.0282598	-0.9704758	0.3431598	0.3228355	0.1426567	0.1482232	-0.1563240	-0.1489485	-0.1843020	0.1833982	0.1824839
0.2300000	0.0433093	0.0307991	-0.9680407	0.3568263	0.3343672	0.1473681	0.1460201	-0.1547524	-0.1468161	-0.1902507	0.1892862	0.1882273
0.2400000	0.0470219	0.0334361	-0.9655344	0.3702882	0.3455641	0.1520274	0.1437527	-0.1531270	-0.1446229	-0.1959806	0.1949591	0.1937423
0.2500000	0.0508706	0.0361691	-0.9629597	0.3835412	0.3564217	0.1566428	0.1414238	-0.1514493	-0.1423720	-0.2014916	0.2004179	0.1990292
0.2600000	0.0548529	0.0389962	-0.9603188	0.3965809	0.3669355	0.1612215	0.1390366	-0.1497205	-0.1400663	-0.2067834	0.2056633	0.2040885
0.2700000	0.0589663	0.0419155	-0.9576143	0.4094029	0.3771019	0.1657702	0.1365938	-0.1479421	-0.1377088	-0.2118561	0.2106962	0.2089209
0.2800000	0.0632082	0.0449250	-0.9548485	0.4220031	0.3869174	0.1702950	0.1340985	-0.1461155	-0.1353024	-0.2167100	0.2155178	0.2135273
0.2900000	0.0675761	0.0480227	-0.9520235	0.4343772	0.3963791	0.1748011	0.1315534	-0.1442422	-0.1328499	-0.2213452	0.2201293	0.2179087
0.3000000	0.0720672	0.0512066	-0.9491417	0.4465211	0.4054843	0.1792934	0.1289615	-0.1423234	-0.1303543	-0.2257622	0.2245321	0.2220663
0.3100000	0.0766790	0.0544746	-0.9462052	0.4584307	0.4142310	0.1837759	0.1263257	-0.1403607	-0.1278184	-0.2299616	0.2287274	0.2260014
0.3200000	0.0814086	0.0578246	-0.9432160	0.4701020	0.4226173	0.1882524	0.1236487	-0.1383555	-0.1252450	-0.2339439	0.2327170	0.2297155
0.3300000	0.0862532	0.0612544	-0.9401763	0.4815312	0.4306420	0.1927256	0.1209334	-0.1363093	-0.1226369	-0.2377100	0.2365023	0.2332102
0.3400000	0.0912101	0.0647618	-0.9370879	0.4927143	0.4383041	0.1971982	0.1181825	-0.1342235	-0.1199969	-0.2412607	0.2400851	0.2364872
0.3500000	0.0962765	0.0683445	-0.9339529	0.5036477	0.4456029	0.2016719	0.1153988	-0.1320995	-0.1173276	-0.2445971	0.2434673	0.2395485
0.3600000	0.1014493	0.0720004	-0.9307730	0.5143277	0.4525383	0.2061484	0.1125850	-0.1299389	-0.1146316	-0.2477203	0.2466507	0.2423961
0.3700000	0.1067259	0.0757272	-0.9275502	0.5247508	0.4591105	0.2106286	0.1097438	-0.1277432	-0.1119117	-0.2506317	0.2496373	0.2450320
0.3800000	0.1121031	0.0795224	-0.9242862	0.5349136	0.4653199	0.2151130	0.1068778	-0.1255137	-0.1091704	-0.2533324	0.2524292	0.2474587
0.3900000	0.1175781	0.0833839	-0.9209827	0.5448129	0.4711674	0.2196016	0.1039896	-0.1232521	-0.1064101	-0.2558242	0.2550284	0.2496784
0.4000000	0.1231480	0.0873091	-0.9176414	0.5544455	0.4766541	0.2240943	0.1010817	-0.1209598	-0.1036335	-0.2581084	0.2574372	0.2516936
0.4100000	0.1288097	0.0912957	-0.9142639	0.5638084	0.4817818	0.2285903	0.0981567	-0.1186384	-0.1008429	-0.2601870	0.2596578	0.2535070
0.4200000	0.1345603	0.0953413	-0.9108519	0.5728988	0.4865520	0.2330886	0.0952171	-0.1162893	-0.0980407	-0.2620617	0.2616926	0.2551212
0.4300000	0.1403968	0.0994435	-0.9074069	0.5817140	0.4909672	0.2375877	0.0922652	-0.1139141	-0.0952292	-0.2637345	0.2635440	0.2565390
0.4400000	0.1463162	0.1035998	-0.9039304	0.5902514	0.4950296	0.2420861	0.0893035	-0.1115143	-0.0924107	-0.2652074	0.2652143	0.2577633
0.4500000	0.1523154	0.1078078	-0.9004238	0.5985088	0.4987421	0.2465818	0.0863343	-0.1090915	-0.0895874	-0.2664825	0.2667061	0.2587971
0.4600000	0.1583915	0.1120649	-0.8968887	0.6064839	0.5021077	0.2510725	0.0833598	-0.1066472	-0.0867615	-0.2675621	0.2680219	0.2596434
0.4700000	0.1645414	0.1163688	-0.8933263	0.6141746	0.5051296	0.2555557	0.0803824	-0.1041828	-0.0839352	-0.2684487	0.2691643	0.2603053
0.4800000	0.1707622	0.1207170	-0.8897381	0.6215793	0.5078116	0.2600288	0.0774041	-0.1017000	-0.0811103	-0.2691445	0.2701359	0.2607861
0.4900000	0.1770508	0.1251068	-0.8861252	0.6286962	0.5101574	0.2644888	0.0744272	-0.0992004	-0.0782891	-0.2696522	0.2709395	0.2610890
0.5000000	0.1834043	0.1295359	-0.8824891	0.6355239	0.5121710	0.2689326	0.0714537	-0.0966853	-0.0754733	-0.2699745	0.2715776	0.2612172
0.5100000	0.1898196	0.1340017	-0.8788310	0.6420611	0.5138568	0.2733571	0.0684857	-0.0941564	-0.0726649	-0.2701139	0.2720531	0.2611743
0.5200000	0.1962937	0.1385018	-0.8751520	0.6483069	0.5152193	0.2777589	0.0655251	-0.0916152	-0.0698658	-0.2700734	0.2723687	0.2609637
0.5300000	0.2028238	0.1430336	-0.8714534	0.6542603	0.5162632	0.2821344	0.0625739	-0.0890632	-0.0670776	-0.2698558	0.2725273	0.2605888
0.5400000	0.2094068	0.1475946	-0.8677362	0.6599207	0.5169934	0.2864801	0.0596340	-0.0865020	-0.0643022	-0.2694641	0.2725315	0.2600531
0.5500000	0.2160397	0.1521824	-0.8640016	0.6652876	0.5174151	0.2907923	0.0567072	-0.0839330	-0.0615411	-0.2689014	0.2723844	0.2593603
0.5600000	0.2227198	0.1567944	-0.8602507	0.6703609	0.5175335	0.2950672	0.0537952	-0.0813578	-0.0587959	-0.2681707	0.2720888	0.2585140
0.5700000	0.2294440	0.1614282	-0.8564844	0.6751406	0.5173541	0.2993012	0.0508998	-0.0787778	-0.0560683	-0.2672753	0.2716475	0.2575178
0.5800000	0.2362096	0.1660813	-0.8527039	0.6796267	0.5168825	0.3034904	0.0480226	-0.0761946	-0.0533597	-0.2662184	0.2710635	0.2563753
0.5900000	0.2430135	0.1707513	-0.8489102	0.6838197	0.5161245	0.3076310	0.0451654	-0.0736097	-0.0506716	-0.2650034	0.2703398	0.2550903
0.6000000	0.2498530	0.1754356	-0.8451040	0.6877202	0.5150859	0.3117191	0.0423295	-0.0710244	-0.0480052	-0.2636335	0.2694792	0.2536665
0.6100000	0.2567253	0.1801319	-0.8412865	0.6913290	0.5137727	0.3157511	0.0395166	-0.0684403	-0.0453620	-0.2621123	0.2684847	0.2521077
0.6200000	0.2636276	0.1848378	-0.8374586	0.6946471	0.5121911	0.3197232	0.0367281	-0.0658588	-0.0427432	-0.2604432	0.2673593	0.2504175
0.6300000	0.2705571	0.1895508	-0.8336210	0.6976757	0.5103473	0.3236316	0.0339654	-0.0632813	-0.0401500	-0.2586298	0.2661060	0.2485998
0.6400000	0.2775110	0.1942685	-0.8297747	0.7004163	0.5082476	0.3274727	0.0312299	-0.0607093	-0.0375836	-0.2566757	0.2647277	0.2466583
0.6500000	0.2844868	0.1989887	-0.8259204	0.7028705	0.5058984	0.3312429	0.0285228	-0.0581441	-0.0350451	-0.2545844	0.2632274	0.2445968
0.6600000	0.2914816	0.2037089	-0.8220591	0.7050401	0.5033061	0.3349388	0.0258454	-0.0555871	-0.0325355	-0.2523597	0.2616081	0.2424190
0.6700000	0.2984929	0.2084269	-0.8181914	0.7069271	0.5004772	0.3385570	0.0231990	-0.0530396	-0.0300559	-0.2500052	0.2598728	0.2401288
0.6800000	0.3055180	0.2131404	-0.8143182	0.7085336	0.4974184	0.3420941	0.0205846	-0.0505030	-0.0276072	-0.2475247	0.2580246	0.2377299
0.6900000	0.3125544	0.2178470	-0.8104402	0.7098622	0.4941363	0.3455471	0.0180034	-0.0479787	-0.0251904	-0.2449219	0.2560663	0.2352261
0.7000000	0.3195995	0.2225446	-0.8065580	0.7109154	0.4906374	0.3489128	0.0154564	-0.0454679	-0.0228062	-0.2422006	0.2540010	0.2326211
0.7100000	0.3266508	0.2272310	-0.8026725	0.7116958	0.4869285	0.3521883	0.0129447	-0.0429718	-0.0204555	-0.2393647	0.2518316	0.2299186
0.7200000	0.3337059	0.2319039	-0.7987843	0.7122065	0.4830163	0.3553709	0.0104691	-0.0404918	-0.0181391	-0.2364179	0.2495612	0.2271223
0.7300000	0.3407623	0.2365612	-0.7948940	0.7124505	0.4789074	0.3584578	0.0080306	-0.0380290	-0.0158577	-0.2333641	0.2471928	0.2242360
0.7400000	0.3478175	0.2412008	-0.7910022	0.7124311	0.4746085	0.3614467	0.0056301	-0.0355847	-0.0136119	-0.2302072	0.2447292	0.2212634
0.7500000	0.3548694	0.2458207	-0.7871097	0.7121516	0.4701262	0.3643351	0.0032684	-0.0331600	-0.0114024	-0.2269510	0.2421735	0.2182080
0.7600000	0.3619154	0.2504187	-0.7832169	0.7116157	0.4654674	0.3671209	0.0009462	-0.0307560	-0.0092299	-0.2235993	0.2395285	0.2150735
0.7700000	0.3689534	0.2549928	-0.7793245	0.7108270	0.4606385	0.3698020	-0.0013357	-0.0283740	-0.0070947	-0.2201561	0.2367973	0.2118635
0.7800000	0.3759811	0.2595411	-0.7754331	0.7097894	0.4556461	0.3723767	-0.0035766	-0.0260149	-0.0049975	-0.2166253	0.2339828	0.2085815
0.7900000	0.3829963	0.2640616	-0.7715432	0.7085069	0.4504970	0.3748431	-0.0057760	-0.0236800	-0.0029387	-0.2130106	0.2310879	0.2052312
0.8000000	0.3899968	0.2685524	-0.7676552	0.7069836	0.4451975	0.3771999	-0.0079331	-0.0213700	-0.0009187	-0.2093160	0.2281156	0.2018160
0.8100000	0.3969806	0.2730116	-0.7637698	0.7052237	0.4397541	0.3794456	-0.0100475	-0.0190862	0.0010620	-0.2055453	0.2250686	0.1983393
0.8200000	0.4039455	0.2774375	-0.7598875	0.7032315	0.4341732	0.3815790	-0.0121186	-0.0168295	0.0030031	-0.2017023	0.2219498	0.1948047
0.8300000	0.4108895	0.2818282	-0.7560087	0.7010116	0.4284612	0.3835992	-0.0141460	-0.0146008	0.0049044	-0.1977909	0.2187623	0.1912154
0.8400000	0.4178106	0.2861819	-0.7521338	0.6985685	0.4226244	0.3855054	-0.0161291	-0.0124010	0.0067654	-0.1938149	0.2155087	0.1875749
0.8500000	0.4247069	0.2904970	-0.7482634	0.6959068	0.4166690	0.3872968	-0.0180677	-0.0102311	0.0085860	-0.1897781	0.2121920	0.1838864
0.8600000	0.4315764	0.2947719	-0.7443979	0.6930313	0.4106011	0.3889730	-0.0199613	-0.0080918	0.0103659	-0.1856842	0.2088149	0.1801532
0.8700000	0.4384174	0.2990047	-0.7405378	0.6899468	0.4044268	0.3905336	-0.0218097	-0.0059841	0.0121050	-0.1815370	0.2053802	0.1763786
0.8800000	0.4452279	0.3031941	-0.7366833	0.6866583	0.3981520	0.3919786	-0.0236125	-0.0039087	0.0138030	-0.1773402	0.2018907	0.1725657
0.8900000	0.4520062	0.3073385	-0.7328350	0.6831707	0.3917826	0.3933078	-0.0253695	-0.0018663	0.0154599	-0.1730974	0.1983492	0.1687176
0.9000000	0.4587506	0.3114364	-0.7289932	0.6794891	0.3853244	0.3945215	-0.0270804	0.0001423	0.0170756	-0.1688123	0.1947585	0.1648374
0.9100000	0.4654593	0.3154863	-0.7251582	0.6756186	0.3787832	0.3956200	-0.0287452	0.0021164	0.0186499	-0.1644886	0.1911211	0.1609282
0.9200000	0.4721309	0.3194868	-0.7213306	0.6715644	0.3721645	0.3966038	-0.0303635	0.0040553	0.0201829	-0.1601298	0.1874399	0.1569930
0.9300000	0.4787635	0.3234366	-0.7175105	0.6673317	0.3654738	0.3974735	-0.0319354	0.0059585	0.0216745	-0.1557394	0.1837175	0.1530347
0.9400000	0.4853557	0.3273344	-0.7136984	0.6629257	0.3587166	0.3982299	-0.0334608	0.0078253	0.0231247	-0.1513210	0.1799565	0.1490561
0.9500000	0.4919060	0.3311789	-0.7098945	0.6583517	0.3518981	0.3988739	-0.0349394	0.0096551	0.0245336	-0.1468780	0.1761596	0.1450601
0.9600000	0.4984129	0.3349690	-0.7060993	0.6536151	0.3450236	0.3994066	-0.0363715	0.0114474	0.0259012	-0.1424137	0.1723294	0.1410495
0.9700000	0.5048749	0.3387033	-0.7023129	0.6487213	0.3380981	0.3998292	-0.0377569	0.0132017	0.0272276	-0.1379317	0.1684684	0.1370271
0.9800000	0.5112908	0.3423810	-0.6985358	0.6436755	0.3311268	0.4001429	-0.0390956	0.0149176	0.0285129	-0.1334351	0.1645793	0.1329955
0.9900000	0.5176592	0.3460007	-0.6947681	0.6384831	0.3241143	0.4003493	-0.0403879	0.0165946	0.0297571	-0.1289273	0.1606645	0.1289573
1.0000000	0.5239787	0.3495616	-0.6910102	0.6331497	0.3170657	0.4004499	-0.0416336	0.0182322	0.0309606	-0.1244115	0.1567266	0.1249151
1.0100000	0.5302481	0.3530627	-0.6872623	0.6276805	0.3099854	0.4004463	-0.0428330	0.0198302	0.0321233	-0.1198908	0.1527680	0.1208715
1.0200000	0.5364663	0.3565029	-0.6835247	0.6220810	0.3028782	0.4003404	-0.0439862	0.0213882	0.0332455	-0.1153683	0.1487911	0.1168288
1.0300000	0.5426321	0.3598816	-0.6797976	0.6163565	0.2957484	0.4001341	-0.0450933	0.0229058	0.0343273	-0.1108471	0.1447985	0.1127896
1.0400000	0.5487443	0.3631977	-0.6760813	0.6105124	0.2886005	0.3998292	-0.0461546	0.0243827	0.0353690	-0.1063302	0.1407924	0.1087561
1.0500000	0.5548019	0.3664506	-0.6723759	0.6045542	0.2814386	0.3994280	-0.0471702	0.0258189	0.0363709	-0.1018205	0.1367753	0.1047307
1.0600000	0.5608039	0.3696395	-0.6686818	0.5984871	0.2742670	0.3989325	-0.0481404	0.0272139	0.0373331	-0.0973209	0.1327495	0.1007157
1.0700000	0.5667493	0.3727636	-0.6649992	0.5923165	0.2670897	0.3983450	-0.0490655	0.0285676	0.0382559	-0.0928342	0.1287173	0.0967132
1.0800000	0.5726371	0.3758225	-0.6613282	0.5860476	0.2599106	0.3976678	-0.0499456	0.0298799	0.0391396	-0.0883632	0.1246810	0.0927254
1.0900000	0.5784664	0.3788154	-0.6576690	0.5796859	0.2527336	0.3969033	-0.0507812	0.0311507	0.0399845	-0.0839105	0.1206427	0.0887543
1.1000000	0.5842364	0.3817418	-0.6540218	0.5732364	0.2455624	0.3960538	-0.0515726	0.0323797	0.0407909	-0.0794789	0.1166049	0.0848020
1.1100000	0.5899464	0.3846012	-0.6503869	0.5667043	0.2384007	0.3951219	-0.0523200	0.0335671	0.0415591	-0.0750708	0.1125695	0.0808705
1.1200000	0.5955954	0.3873932	-0.6467643	0.5600949	0.2312520	0.3941101	-0.0530239	0.0347126	0.0422893	-0.0706887	0.1085387	0.0769617
1.1300000	0.6011828	0.3901174	-0.6431544	0.5534133	0.2241197	0.3930210	-0.0536846	0.0358164	0.0429821	-0.0663352	0.1045148	0.0730776
1.1400000	0.6067079	0.3927733	-0.6395571	0.5466645	0.2170072	0.3918572	-0.0543025	0.0368784	0.0436377	-0.0620125	0.1004997	0.0692198
1.1500000	0.6121700	0.3953607	-0.6359727	0.5398534	0.2099178	0.3906214	-0.0548780	0.0378986	0.0442564	-0.0577230	0.0964955	0.0653902
1.1600000	0.6175686	0.3978793	-0.6324013	0.5329852	0.2028546	0.3893162	-0.0554117	0.0388771	0.0448387	-0.0534689	0.0925042	0.0615905
1.1700000	0.6229030	0.4003288	-0.6288431	0.5260646	0.1958207	0.3879443	-0.0559038	0.0398141	0.0453849	-0.0492524	0.0885279	0.0578223
1.1800000	0.6281728	0.4027091	-0.6252982	0.5190966	0.1888190	0.3865085	-0.0563549	0.0407096	0.0458954	-0.0450756	0.0845683	0.0540873
1.1900000	0.6333774	0.4050200	-0.6217668	0.5120858	0.1818525	0.3850114	-0.0567654	0.0415638	0.0463706	-0.0409406	0.0806275	0.0503871
1.2000000	0.6385165	0.4072615	-0.6182489	0.5050371	0.1749239	0.3834558	-0.0571359	0.0423768	0.0468110	-0.0368492	0.0767074	0.0467231
1.2100000	0.6435895	0.4094335	-0.6147446	0.4979550	0.1680360	0.3818444	-0.0574668	0.0431489	0.0472169	-0.0328035	0.0728097	0.0430967
1.2200000	0.6485962	0.4115358	-0.6112542	0.4908442	0.1611914	0.3801799	-0.0577587	0.0438802	0.0475888	-0.0288052	0.0689362	0.0395095
1.2300000	0.6535362	0.4135687	-0.6077776	0.4837091	0.1543927	0.3784651	-0.0580120	0.0445711	0.0479271	-0.0248561	0.0650888	0.0359628
1.2400000	0.6584092	0.4155321	-0.6043151	0.4765542	0.1476423	0.3767026	-0.0582274	0.0452217	0.0482322	-0.0209580	0.0612691	0.0324578
1.2500000	0.6632150	0.4174262	-0.6008666	0.4693839	0.1409427	0.3748951	-0.0584054	0.0458323	0.0485047	-0.0171124	0.0574788	0.0289959
1.2600000	0.6679533	0.4192510	-0.5974324	0.4622025	0.1342961	0.3730453	-0.0585465	0.0464033	0.0487448	-0.0133210	0.0537196	0.0255782
1.2700000	0.6726239	0.4210068	-0.5940124	0.4550141	0.1277048	0.3711558	-0.0586513	0.0469350	0.0489532	-0.0095851	0.0499931	0.0222059
1.2800000	0.6772268	0.4226938	-0.5906068	0.4478229	0.1211710	0.3692293	-0.0587204	0.0474276	0.0491302	-0.0059064	0.0463008	0.0188801
1.2900000	0.6817617	0.4243123	-0.5872156	0.4406330	0.1146968	0.3672682	-0.0587544	0.0478817	0.0492764	-0.0022860	0.0426443	0.0156018
1.3000000	0.6862287	0.4258625	-0.5838389	0.4334483	0.1082842	0.3652752	-0.0587539	0.0482976	0.0493922	0.0012746	0.0390251	0.0123722
1.3100000	0.6906276	0.4273448	-0.5804768	0.4262728	0.1019351	0.3632526	-0.0587195	0.0486756	0.0494781	0.0047743	0.0354445	0.0091922
1.3200000	0.6949585	0.4287595	-0.5771293	0.4191102	0.0956515	0.3612031	-0.0586518	0.0490163	0.0495345	0.0082118	0.0319041	0.0060626
1.3300000	0.6992214	0.4301070	-0.5737965	0.4119643	0.0894351	0.3591288	-0.0585515	0.0493199	0.0495620	0.0115861	0.0284052	0.0029845
1.3400000	0.7034163	0.4313878	-0.5704785	0.4048387	0.0832878	0.3570323	-0.0584191	0.0495871	0.0495611	0.0148961	0.0249490	-0.0000415
1.3500000	0.7075434	0.4326023	-0.5671753	0.3977371	0.0772113	0.3549159	-0.0582553	0.0498183	0.0495323	0.0181408	0.0215370	-0.0030144
1.3600000	0.7116027	0.4337511	-0.5638870	0.3906627	0.0712071	0.3527816	-0.0580609	0.0500139	0.0494760	0.0213194	0.0181703	-0.0059336
1.3700000	0.7155944	0.4348346	-0.5606136	0.3836191	0.0652768	0.3506319	-0.0578363	0.0501744	0.0493928	0.0244309	0.0148501	-0.0087983
1.3800000	0.7195187	0.4358534	-0.5573551	0.3766096	0.0594220	0.3484687	-0.0575822	0.0503005	0.0492832	0.0274747	0.0115776	-0.0116079
1.3900000	0.7233758	0.4368081	-0.5541116	0.3696373	0.0536442	0.3462941	-0.0572994	0.0503925	0.0491477	0.0304498	0.0083539	-0.0143618
1.4000000	0.7271659	0.4376992	-0.5508831	0.3627054	0.0479446	0.3441103	-0.0569885	0.0504511	0.0489868	0.0333558	0.0051801	-0.0170593
1.4100000	0.7308893	0.4385276	-0.5476697	0.3558169	0.0423247	0.3419190	-0.0566502	0.0504768	0.0488010	0.0361919	0.0020572	-0.0197000
1.4200000	0.7345464	0.4392937	-0.5444714	0.3489748	0.0367858	0.3397222	-0.0562850	0.0504701	0.0485908	0.0389576	-0.0010139	-0.0222833
1.4300000	0.7381373	0.4399984	-0.5412881	0.3421819	0.0313290	0.3375217	-0.0558938	0.0504317	0.0483568	0.0416525	-0.0040320	-0.0248088
1.4400000	0.7416626	0.4406422	-0.5381200	0.3354410	0.0259556	0.3353193	-0.0554771	0.0503622	0.0480996	0.0442760	-0.0069965	-0.0272760
1.4500000	0.7451225	0.4412261	-0.5349671	0.3287548	0.0206667	0.3331166	-0.0550356	0.0502621	0.0478195	0.0468279	-0.0099063	-0.0296847
1.4600000	0.7485174	0.4417506	-0.5318292	0.3221260	0.0154634	0.3309153	-0.0545701	0.0501320	0.0475172	0.0493077	-0.0127607	-0.0320344
1.4700000	0.7518479	0.4422167	-0.5287066	0.3155569	0.0103466	0.3287169	-0.0540812	0.0499726	0.0471932	0.0517152	-0.0155590	-0.0343248
