Time  pn  pe  pd  u  v  w  phi  theta  psi  p  q  r
0.0000000	0.0000000	0.0000000	-1.0000000	0.0000000	0.0000000	0.0000000	0.1745329	-0.1745329	-0.1745329	0.0000000	0.0000000	0.0000000
0.1000000	0.0083164	0.0059180	-0.9926445	0.1647648	0.1605303	0.0938111	0.1682358	-0.1702740	-0.1683909	-0.1050162	0.1044223	0.1047198
0.2000000	0.0325493	0.0231505	-0.9730045	0.3144817	0.2971463	0.1557191	0.1507594	-0.1582150	-0.1514276	-0.1893541	0.1865208	0.1874283
0.3000000	0.0710362	0.0504533	-0.9450220	0.4439833	0.3999872	0.2047395	0.1251177	-0.1398066	-0.1267460	-0.2504923	0.2449203	0.2454850
0.4000000	0.1212579	0.0858706	-0.9115688	0.5485414	0.4644057	0.2507384	0.0945069	-0.1165669	-0.0975842	-0.2873266	0.2802133	0.2785727
0.5000000	0.1802077	0.1269604	-0.8747091	0.6242514	0.4903027	0.2962336	0.0619575	-0.0901371	-0.0669169	-0.3003665	0.2943492	0.2883730
0.6000000	0.2447261	0.1710335	-0.8359149	0.6688500	0.4812699	0.3390572	0.0300831	-0.0622513	-0.0371980	-0.2917000	0.2901079	0.2780579
0.7000000	0.3117623	0.2153828	-0.7962369	0.6823368	0.4434626	0.3751083	0.0009423	-0.0346345	-0.0102496	-0.2647378	0.2706961	0.2517165
0.8000000	0.3785574	0.2574879	-0.7564325	0.6670910	0.3843314	0.4005707	-0.0240006	-0.0088714	0.0127335	-0.2238033	0.2394731	0.2138159
0.9000000	0.4427588	0.2951806	-0.7170558	0.6274897	0.3114588	0.4132683	-0.0438445	0.0137157	0.0311034	-0.1736605	0.1997827	0.1687580
1.0000000	0.5024810	0.3267667	-0.6785183	0.5692216	0.2317110	0.4131302	-0.0581824	0.0321526	0.0446477	-0.1190606	0.1548523	0.1205633
1.1000000	0.5563292	0.3510998	-0.6411256	0.4985273	0.1507930	0.4019572	-0.0670183	0.0458542	0.0534740	-0.0643608	0.1077234	0.0726761
1.2000000	0.6033972	0.3676041	-0.6050993	0.4215391	0.0731543	0.3827721	-0.0706811	0.0546231	0.0579122	-0.0132456	0.0611851	0.0278734
1.3000000	0.6432432	0.3762514	-0.5705910	0.3437965	0.0021162	0.3590345	-0.0697437	0.0586146	0.0584386	0.0314435	0.0176978	-0.0117518
1.4000000	0.6758510	0.3774977	-0.5376912	0.2699419	-0.0599224	0.3339368	-0.0649474	0.0582774	0.0556231	0.0677752	-0.0206900	-0.0447584
1.5000000	0.7015749	0.3721897	-0.5064387	0.2035642	-0.1113037	0.3099155	-0.0571331	0.0542805	0.0500937	0.0947067	-0.0524201	-0.0702995
1.6000000	0.7210739	0.3614546	-0.4768300	0.1471522	-0.1509984	0.2884295	-0.0471819	0.0474339	0.0425118	0.1119956	-0.0764819	-0.0880533
1.7000000	0.7352363	0.3465856	-0.4488298	0.1021292	-0.1785588	0.2699864	-0.0359630	0.0386100	0.0335513	0.1200657	-0.0924362	-0.0981510
1.8000000	0.7450998	0.3289330	-0.4223815	0.0689513	-0.1941063	0.2543484	-0.0242921	0.0286731	0.0238773	0.1198515	-0.1003968	-0.1011054
1.9000000	0.7517722	0.3098107	-0.3974162	0.0472557	-0.1983147	0.2408309	-0.0128976	0.0184211	0.0141208	0.1126395	-0.1009703	-0.0977383
2.0000000	0.7563562	0.2904206	-0.3738603	0.0360403	-0.1923654	0.2286045	-0.0023955	0.0085422	0.0048525	0.0999214	-0.0951604	-0.0891066
2.1000000	0.7598840	0.2717978	-0.3516410	0.0338558	-0.1778623	0.2169373	0.0067288	-0.0004120	-0.0034439	0.0832682	-0.0842498	-0.0764244
2.2000000	0.7632638	0.2547760	-0.3306893	0.0389871	-0.1567130	0.2053409	0.0141314	-0.0080375	-0.0103946	0.0642279	-0.0696725	-0.0609838
2.3000000	0.7672412	0.2399702	-0.3109407	0.0496106	-0.1309884	0.1936172	0.0196129	-0.0140774	-0.0157507	0.0442457	-0.0528910	-0.0440749
2.4000000	0.7723760	0.2277753	-0.2923351	0.0639161	-0.1027772	0.1818223	0.0231136	-0.0184104	-0.0193941	0.0246057	-0.0352901	-0.0269113
2.5000000	0.7790348	0.2183779	-0.2748158	0.0801971	-0.0740517	0.1701812	0.0247009	-0.0210344	-0.0213318	0.0063890	-0.0180937	-0.0105654
2.6000000	0.7873966	0.2117763	-0.2583283	0.0969129	-0.0465548	0.1589848	0.0245500	-0.0220461	-0.0216812	-0.0095539	-0.0023078	0.0040827
2.7000000	0.7974710	0.2078092	-0.2428193	0.1127323	-0.0217162	0.1484990	0.0229190	-0.0216202	-0.0206477	-0.0226168	0.0113093	0.0163769
2.8000000	0.8091240	0.2061885	-0.2282362	0.1265639	-0.0006007	0.1389013	0.0201216	-0.0199875	-0.0184979	-0.0324398	0.0222543	0.0258996
2.9000000	0.8221094	0.2065338	-0.2145270	0.1375771	0.0161100	0.1302546	0.0164995	-0.0174150	-0.0155316	-0.0388984	0.0302675	0.0324659
3.0000000	0.8361029	0.2084078	-0.2016407	0.1452132	0.0281069	0.1225125	0.0123957	-0.0141859	-0.0120558	-0.0420823	0.0353068	0.0361033
3.1000000	0.8507351	0.2113504	-0.1895282	0.1491857	0.0354174	0.1155478	0.0081326	-0.0105825	-0.0083623	-0.0422635	0.0375144	0.0370187
3.2000000	0.8656223	0.2149082	-0.1781422	0.1494672	0.0383515	0.1091927	0.0039947	-0.0068700	-0.0047108	-0.0398571	0.0371778	0.0355578
3.3000000	0.8803936	0.2186607	-0.1674382	0.1462625	0.0374374	0.1032773	0.0002155	-0.0032840	-0.0013173	-0.0353778	0.0346901	0.0321617
3.4000000	0.8947118	0.2222409	-0.1573746	0.1399704	0.0333525	0.0976602	-0.0030282	-0.0000199	0.0016523	-0.0293949	0.0305113	0.0273238
3.5000000	0.9082901	0.2253491	-0.1479128	0.1311354	0.0268580	0.0922458	-0.0056193	0.0027726	0.0040840	-0.0224893	0.0251320	0.0215507
3.6000000	0.9209028	0.2277620	-0.1390168	0.1203957	0.0187393	0.0869873	-0.0074976	0.0049932	0.0059134	-0.0152154	0.0190418	0.0153290
3.7000000	0.9323905	0.2293349	-0.1306533	0.1084300	0.0097560	0.0818798	-0.0086551	0.0065901	0.0071219	-0.0080701	0.0127017	0.0090984
3.8000000	0.9426610	0.2299993	-0.1227912	0.0959084	0.0006024	0.0769470	-0.0091278	0.0075567	0.0077299	-0.0014699	0.0065222	0.0032330
3.9000000	0.9516860	0.2297559	-0.1154012	0.0834511	-0.0081216	0.0722246	-0.0089877	0.0079257	0.0077896	0.0042637	0.0008467	-0.0019707
4.0000000	0.9594949	0.2286644	-0.1084555	0.0715951	-0.0159295	0.0677477	-0.0083323	0.0077615	0.0073775	0.0089095	-0.0040592	-0.0062996
4.1000000	0.9661652	0.2268315	-0.1019279	0.0607726	-0.0224591	0.0635402	-0.0072754	0.0071518	0.0065860	0.0123457	-0.0080127	-0.0096237
4.2000000	0.9718127	0.2243967	-0.0957934	0.0512991	-0.0274746	0.0596111	-0.0059381	0.0061984	0.0055165	0.0145421	-0.0109134	-0.0118911
4.3000000	0.9765794	0.2215197	-0.0900286	0.0433704	-0.0308623	0.0559543	-0.0044406	0.0050094	0.0042721	0.0155481	-0.0127379	-0.0131201
4.4000000	0.9806229	0.2183669	-0.0846109	0.0370687	-0.0326200	0.0525519	-0.0028950	0.0036911	0.0029515	0.0154774	-0.0135311	-0.0133873
4.5000000	0.9841049	0.2151006	-0.0795193	0.0323746	-0.0328424	0.0493796	-0.0014005	0.0023421	0.0016443	0.0144915	-0.0133938	-0.0128155
4.6000000	0.9871823	0.2118695	-0.0747340	0.0291830	-0.0317023	0.0464113	-0.0000389	0.0010480	0.0004264	0.0127830	-0.0124686	-0.0115593
4.7000000	0.9899991	0.2088017	-0.0702365	0.0273227	-0.0294302	0.0436238	0.0011277	-0.0001211	-0.0006418	0.0105592	-0.0109256	-0.0097923
4.8000000	0.9926800	0.2059998	-0.0660093	0.0265758	-0.0262928	0.0409983	0.0020575	-0.0011134	-0.0015177	0.0080276	-0.0089476	-0.0076936
4.9000000	0.9953269	0.2035383	-0.0620362	0.0266975	-0.0225721	0.0385218	0.0027291	-0.0018951	-0.0021761	0.0053841	-0.0067173	-0.0054366
5.0000000	0.9980162	0.2014634	-0.0583020	0.0274337	-0.0185466	0.0361862	0.0031393	-0.0024500	-0.0026085	0.0028024	-0.0044062	-0.0031796
5.1000000	1.0007989	0.1997940	-0.0547923	0.0285376	-0.0144747	0.0339862	0.0033014	-0.0027779	-0.0028214	0.0004278	-0.0021654	-0.0010580
5.2000000	1.0037016	0.1985244	-0.0514939	0.0297819	-0.0105822	0.0319185	0.0032414	-0.0028921	-0.0028337	-0.0016279	-0.0001197	0.0008200
5.3000000	1.0067290	0.1976282	-0.0483940	0.0309695	-0.0070530	0.0299794	0.0029952	-0.0028168	-0.0026736	-0.0032880	0.0016362	0.0023767
5.4000000	1.0098676	0.1970629	-0.0454807	0.0319401	-0.0040237	0.0281642	0.0026044	-0.0025839	-0.0023759	-0.0045103	0.0030390	0.0035650
5.5000000	1.0130892	0.1967742	-0.0427428	0.0325740	-0.0015823	0.0264664	0.0021137	-0.0022301	-0.0019785	-0.0052848	0.0040559	0.0043667
5.6000000	1.0163559	0.1967014	-0.0401699	0.0327936	0.0002303	0.0248786	0.0015671	-0.0017940	-0.0015199	-0.0056298	0.0046821	0.0047896
5.7000000	1.0196238	0.1967816	-0.0377518	0.0325612	0.0014158	0.0233922	0.0010055	-0.0013137	-0.0010366	-0.0055867	0.0049370	0.0048633
5.8000000	1.0228471	0.1969534	-0.0354793	0.0318759	0.0020123	0.0219984	0.0004649	-0.0008242	-0.0005614	-0.0052143	0.0048591	0.0046342
5.9000000	1.0259814	0.1971608	-0.0333437	0.0307680	0.0020870	0.0206891	-0.0000251	-0.0003563	-0.0001216	-0.0045824	0.0045015	0.0041601
6.0000000	1.0289869	0.1973555	-0.0313365	0.0292927	0.0017273	0.0194570	-0.0004427	0.0000652	0.0002616	-0.0037667	0.0039262	0.0035050
6.1000000	1.0318302	0.1974982	-0.0294501	0.0275231	0.0010333	0.0182961	-0.0007731	0.0004216	0.0005734	-0.0028428	0.0031992	0.0027347
6.2000000	1.0344859	0.1975603	-0.0276773	0.0255428	0.0001096	0.0172014	-0.0010092	0.0007011	0.0008054	-0.0018820	0.0023859	0.0019121
6.3000000	1.0369370	0.1975233	-0.0260111	0.0234396	-0.0009416	0.0161692	-0.0011505	0.0008979	0.0009555	-0.0009474	0.0015475	0.0010942
6.4000000	1.0391756	0.1973789	-0.0244452	0.0212992	-0.0020258	0.0151964	-0.0012024	0.0010123	0.0010266	-0.0000914	0.0007379	0.0003294
6.5000000	1.0412017	0.1971277	-0.0229736	0.0192001	-0.0030612	0.0142802	-0.0011747	0.0010493	0.0010258	0.0006461	0.0000014	-0.0003442
6.6000000	1.0430228	0.1967778	-0.0215905	0.0172098	-0.0039810	0.0134181	-0.0010805	0.0010178	0.0009637	0.0012378	-0.0006285	-0.0008995
6.7000000	1.0446526	0.1963432	-0.0202907	0.0153823	-0.0047360	0.0126077	-0.0009353	0.0009298	0.0008528	0.0016694	-0.0011293	-0.0013202
6.8000000	1.0461092	0.1958422	-0.0190692	0.0137565	-0.0052942	0.0118463	-0.0007550	0.0007988	0.0007068	0.0019383	-0.0014898	-0.0016009
6.9000000	1.0474140	0.1952952	-0.0179212	0.0123560	-0.0056405	0.0111313	-0.0005556	0.0006387	0.0005396	0.0020519	-0.0017086	-0.0017448
7.0000000	1.0485902	0.1947238	-0.0168424	0.0111896	-0.0057753	0.0104598	-0.0003518	0.0004636	0.0003643	0.0020260	-0.0017931	-0.0017632
7.1000000	1.0496610	0.1941484	-0.0158285	0.0102533	-0.0057120	0.0098292	-0.0001565	0.0002860	0.0001925	0.0018823	-0.0017577	-0.0016733
7.2000000	1.0506488	0.1935879	-0.0148756	0.0095318	-0.0054743	0.0092368	0.0000199	0.0001170	0.0000341	0.0016466	-0.0016219	-0.0014960
7.3000000	1.0515740	0.1930584	-0.0139801	0.0090009	-0.0050935	0.0086802	0.0001695	-0.0000345	-0.0001035	0.0013463	-0.0014085	-0.0012546
7.4000000	1.0524542	0.1925723	-0.0131385	0.0086308	-0.0046053	0.0081571	0.0002873	-0.0001620	-0.0002149	0.0010089	-0.0011414	-0.0009730
7.5000000	1.0533040	0.1921388	-0.0123475	0.0083879	-0.0040469	0.0076655	0.0003708	-0.0002613	-0.0002972	0.0006598	-0.0008445	-0.0006738
7.6000000	1.0541343	0.1917630	-0.0116042	0.0082377	-0.0034551	0.0072034	0.0004199	-0.0003305	-0.0003498	0.0003219	-0.0005400	-0.0003775
7.7000000	1.0549528	0.1914466	-0.0109056	0.0081465	-0.0028635	0.0067692	0.0004367	-0.0003698	-0.0003738	0.0000136	-0.0002472	-0.0001016
7.8000000	1.0557638	0.1911882	-0.0102491	0.0080837	-0.0023011	0.0063613	0.0004248	-0.0003813	-0.0003719	-0.0002507	0.0000179	0.0001405
7.9000000	1.0565689	0.1909835	-0.0096320	0.0080228	-0.0017915	0.0059780	0.0003892	-0.0003682	-0.0003479	-0.0004617	0.0002436	0.0003390
8.0000000	1.0573672	0.1908265	-0.0090522	0.0079424	-0.0013519	0.0056180	0.0003353	-0.0003350	-0.0003065	-0.0006144	0.0004218	0.0004884
8.1000000	1.0581557	0.1907096	-0.0085072	0.0078265	-0.0009932	0.0052799	0.0002692	-0.0002864	-0.0002527	-0.0007081	0.0005490	0.0005868
8.2000000	1.0589306	0.1906243	-0.0079951	0.0076650	-0.0007199	0.0049623	0.0001965	-0.0002278	-0.0001916	-0.0007458	0.0006247	0.0006358
8.3000000	1.0596868	0.1905623	-0.0075138	0.0074530	-0.0005313	0.0046639	0.0001225	-0.0001639	-0.0001278	-0.0007332	0.0006520	0.0006395
8.4000000	1.0604193	0.1905151	-0.0070614	0.0071904	-0.0004219	0.0043835	0.0000519	-0.0000995	-0.0000656	-0.0006784	0.0006362	0.0006042
8.5000000	1.0611232	0.1904754	-0.0066363	0.0068814	-0.0003822	0.0041200	-0.0000115	-0.0000385	-0.0000085	-0.0005909	0.0005846	0.0005379
8.6000000	1.0617942	0.1904367	-0.0062368	0.0065331	-0.0004006	0.0038723	-0.0000651	0.0000160	0.0000408	-0.0004806	0.0005053	0.0004488
8.7000000	1.0624288	0.1903939	-0.0058613	0.0061550	-0.0004635	0.0036395	-0.0001070	0.0000616	0.0000806	-0.0003574	0.0004073	0.0003458
8.8000000	1.0630246	0.1903432	-0.0055085	0.0057579	-0.0005571	0.0034205	-0.0001364	0.0000970	0.0001097	-0.0002307	0.0002990	0.0002369
8.9000000	1.0635802	0.1902821	-0.0051769	0.0053530	-0.0006677	0.0032147	-0.0001534	0.0001213	0.0001280	-0.0001085	0.0001885	0.0001297
9.0000000	1.0640954	0.1902097	-0.0048652	0.0049513	-0.0007830	0.0030212	-0.0001587	0.0001349	0.0001360	0.0000025	0.0000827	0.0000302
9.1000000	1.0645710	0.1901260	-0.0045723	0.0045624	-0.0008921	0.0028393	-0.0001537	0.0001384	0.0001347	0.0000973	-0.0000127	-0.0000567
9.2000000	1.0650087	0.1900320	-0.0042970	0.0041948	-0.0009866	0.0026683	-0.0001402	0.0001331	0.0001255	0.0001725	-0.0000935	-0.0001276
9.3000000	1.0654110	0.1899295	-0.0040383	0.0038550	-0.0010599	0.0025076	-0.0001202	0.0001206	0.0001101	0.0002264	-0.0001570	-0.0001805
9.4000000	1.0657809	0.1898210	-0.0037952	0.0035477	-0.0011080	0.0023566	-0.0000960	0.0001026	0.0000903	0.0002589	-0.0002019	-0.0002150
9.5000000	1.0661218	0.1897089	-0.0035668	0.0032753	-0.0011293	0.0022147	-0.0000695	0.0000811	0.0000680	0.0002712	-0.0002281	-0.0002315
9.6000000	1.0664372	0.1895961	-0.0033520	0.0030387	-0.0011238	0.0020813	-0.0000426	0.0000579	0.0000448	0.0002654	-0.0002369	-0.0002318
9.7000000	1.0667307	0.1894851	-0.0031502	0.0028367	-0.0010935	0.0019560	-0.0000172	0.0000345	0.0000223	0.0002446	-0.0002302	-0.0002181
9.8000000	1.0670057	0.1893781	-0.0029606	0.0026670	-0.0010417	0.0018382	0.0000057	0.0000125	0.0000017	0.0002120	-0.0002106	-0.0001933
9.9000000	1.0672651	0.1892773	-0.0027823	0.0025261	-0.0009724	0.0017275	0.0000249	-0.0000071	-0.0000160	0.0001715	-0.0001812	-0.0001605
10.0000000	1.0675117	0.1891841	-0.0026148	0.0024097	-0.0008905	0.0016235	0.0000398	-0.0000234	-0.0000301	0.0001266	-0.0001452	-0.0001229
10.1000000	1.0677477	0.1890994	-0.0024574	0.0023131	-0.0008008	0.0015257	0.0000501	-0.0000360	-0.0000404	0.0000806	-0.0001058	-0.0000833
10.2000000	1.0679748	0.1890240	-0.0023095	0.0022317	-0.0007081	0.0014338	0.0000560	-0.0000446	-0.0000468	0.0000364	-0.0000657	-0.0000444
10.3000000	1.0681943	0.1889577	-0.0021705	0.0021607	-0.0006166	0.0013475	0.0000576	-0.0000492	-0.0000495	-0.0000035	-0.0000274	-0.0000086
10.4000000	1.0684071	0.1889004	-0.0020398	0.0020961	-0.0005303	0.0012664	0.0000556	-0.0000502	-0.0000488	-0.0000375	0.0000069	0.0000226
10.5000000	1.0686136	0.1888514	-0.0019170	0.0020342	-0.0004518	0.0011901	0.0000505	-0.0000481	-0.0000452	-0.0000643	0.0000358	0.0000479
10.6000000	1.0688140	0.1888097	-0.0018016	0.0019723	-0.0003836	0.0011185	0.0000431	-0.0000434	-0.0000395	-0.0000833	0.0000584	0.0000667
10.7000000	1.0690080	0.1887743	-0.0016931	0.0019081	-0.0003267	0.0010512	0.0000342	-0.0000368	-0.0000322	-0.0000946	0.0000742	0.0000787
10.8000000	1.0691954	0.1887440	-0.0015912	0.0018402	-0.0002816	0.0009879	0.0000245	-0.0000289	-0.0000241	-0.0000986	0.0000833	0.0000843
10.9000000	1.0693759	0.1887175	-0.0014954	0.0017680	-0.0002483	0.0009284	0.0000148	-0.0000204	-0.0000157	-0.0000960	0.0000860	0.0000840
11.0000000	1.0695489	0.1886939	-0.0014054	0.0016914	-0.0002257	0.0008725	0.0000056	-0.0000120	-0.0000075	-0.0000881	0.0000832	0.0000787
11.1000000	1.0697140	0.1886721	-0.0013208	0.0016109	-0.0002127	0.0008200	-0.0000026	-0.0000040	-0.0000001	-0.0000761	0.0000758	0.0000695
11.2000000	1.0698710	0.1886511	-0.0012413	0.0015275	-0.0002076	0.0007707	-0.0000095	0.0000030	0.0000062	-0.0000612	0.0000650	0.0000574
11.3000000	1.0700195	0.1886304	-0.0011665	0.0014422	-0.0002085	0.0007243	-0.0000148	0.0000089	0.0000113	-0.0000448	0.0000518	0.0000436
11.4000000	1.0701594	0.1886093	-0.0010963	0.0013564	-0.0002137	0.0006807	-0.0000184	0.0000133	0.0000149	-0.0000281	0.0000374	0.0000292
11.5000000	1.0702908	0.1885876	-0.0010303	0.0012716	-0.0002212	0.0006397	-0.0000204	0.0000163	0.0000171	-0.0000121	0.0000228	0.0000152
11.6000000	1.0704138	0.1885650	-0.0009683	0.0011889	-0.0002296	0.0006012	-0.0000209	0.0000179	0.0000180	0.0000022	0.0000090	0.0000022
11.7000000	1.0705287	0.1885417	-0.0009100	0.0011097	-0.0002373	0.0005650	-0.0000201	0.0000182	0.0000177	0.0000144	-0.0000033	-0.0000089
11.8000000	1.0706359	0.1885176	-0.0008552	0.0010349	-0.0002433	0.0005310	-0.0000182	0.0000174	0.0000163	0.0000239	-0.0000137	-0.0000180
11.9000000	1.0707358	0.1884931	-0.0008037	0.0009652	-0.0002468	0.0004990	-0.0000154	0.0000156	0.0000142	0.0000306	-0.0000217	-0.0000246
12.0000000	1.0708291	0.1884684	-0.0007553	0.0009013	-0.0002471	0.0004690	-0.0000122	0.0000132	0.0000115	0.0000345	-0.0000273	-0.0000288
